#unit_cell_volume,density,AV_A3,AV_volumefraction,AV_cm3g
48001.1,1.75016,2602.62,0.05422,0.03098
48201.1,1.7429,2666.48,0.05532,0.0317401
48401.2,1.7357,2731.76,0.05644,0.0325172
48601.1,1.72856,2812.06,0.05786,0.033473
48801,1.72148,2884.14,0.0591,0.034331
49001.1,1.71445,2964.57,0.0605,0.0352883
49201.1,1.70748,3047.51,0.06194,0.0362757
49401.1,1.70057,3118.2,0.06312,0.037117
49601.1,1.69371,3201.25,0.06454,0.0381057
49801,1.68691,3565.75,0.0716,0.0424444
50001.2,1.68016,3406.08,0.06812,0.0405438
50201,1.67347,3523.11,0.07018,0.0419368
50401.1,1.66683,3622.83,0.07188,0.0431238
50601,1.66024,3725.24,0.07362,0.0443429
50801.1,1.6537,3829.38,0.07538,0.0455825
51001.1,1.64722,3910.77,0.07668,0.0465513
51201.1,1.64078,3997.78,0.07808,0.047587
51401.1,1.6344,4099.75,0.07976,0.0488008
51601,1.62807,4183.81,0.08108,0.0498014
51801.1,1.62178,4297.42,0.08296,0.0511537
52001.2,1.61554,4429.46,0.08518,0.0527255
52201.3,1.60935,4524.81,0.08668,0.0538604
52401.3,1.6032,4641.7,0.08858,0.0552519
52601.2,1.59711,4766.72,0.09062,0.05674
52801.1,1.59106,4891.5,0.09264,0.0582253
53001.1,1.58506,4988.47,0.09412,0.0593795
53201.1,1.5791,5134.97,0.09652,0.0611235
53401.2,1.57318,5217.3,0.0977,0.0621034
53601.2,1.56731,5303.3,0.09894,0.0631272
53801.2,1.56149,5400.56,0.10038,0.0642849
54001.2,1.5557,5529.72,0.1024,0.0658223
54201.2,1.54996,5591.4,0.10316,0.0665565
54401.3,1.54426,5697.99,0.10474,0.0678252
54601.4,1.5386,5787.75,0.106,0.0688936
54807.1,1.53283,5749.27,0.1049,0.0684356
55001.3,1.52742,5720.13,0.104,0.0680888
55201.2,1.52189,5829.24,0.1056,0.0693876
55401.4,1.51639,6063.13,0.10944,0.0721716
55601.2,1.51094,6242.91,0.11228,0.0743116
55801.2,1.50552,6382.54,0.11438,0.0759737
56001.3,1.50014,6528.63,0.11658,0.0777126
56201.1,1.49481,6708.16,0.11936,0.0798497
56401.1,1.48951,6895.6,0.12226,0.0820808
56601.1,1.48424,7041.18,0.1244,0.0838137
56801.1,1.47902,7177.39,0.12636,0.0854351
57001.2,1.47383,7324.65,0.1285,0.087188
57201.1,1.46868,7537.96,0.13178,0.0897271
57401.1,1.46356,7653.87,0.13334,0.0911068
57601.2,1.45847,7808.42,0.13556,0.0929465
57801.2,1.45343,7992.75,0.13828,0.0951406
58001.1,1.44842,8168.88,0.14084,0.0972371
58201.1,1.44344,8219.17,0.14122,0.0978357
58401.1,1.4385,8541.75,0.14626,0.101675
58601.1,1.43359,8567.48,0.1462,0.101982
58801.1,1.42871,8735.49,0.14856,0.103982
59001.1,1.42387,9018.9,0.15286,0.107355
59201.1,1.41906,9146.56,0.1545,0.108875
59401.1,1.41428,9373.49,0.1578,0.111576
59601.1,1.40954,9600.55,0.16108,0.114279
59801.1,1.40482,9757.14,0.16316,0.116143
60001,1.40014,9871.37,0.16452,0.117502
60201,1.39549,9994.57,0.16602,0.118969
60401,1.39087,10109.9,0.16738,0.120342
60600.9,1.38628,10200.3,0.16832,0.121418
60800.9,1.38172,10332.5,0.16994,0.122992
61000.9,1.37719,10456.8,0.17142,0.124471
61200.8,1.37269,10522.9,0.17194,0.125258
61400.8,1.36822,10648.1,0.17342,0.126749
61600.9,1.36378,10760.4,0.17468,0.128085
61800.9,1.35936,10844.8,0.17548,0.12909
62001,1.35498,10972.9,0.17698,0.130615
62201,1.35062,11068,0.17794,0.131747
62401,1.34629,10218.8,0.16376,0.121638
62600.9,1.34199,10337.9,0.16514,0.123056
62801.1,1.33771,11331.8,0.18044,0.134887
63001,1.33347,10702.6,0.16988,0.127397
63201.1,1.32925,10812.4,0.17108,0.128704
63401,1.32506,10989.9,0.17334,0.130817
63601,1.32089,11127.6,0.17496,0.132456
63801,1.31675,11325.9,0.17752,0.134817
64001,1.31263,11451.1,0.17892,0.136306
64200.9,1.30855,11610.1,0.18084,0.138199
64400.9,1.30448,11771.2,0.18278,0.140117
64600.9,1.30044,11952.5,0.18502,0.142275
64800.9,1.29643,12085.4,0.1865,0.143857
65000.9,1.29244,12317.7,0.1895,0.146622
65200.9,1.28848,12419.5,0.19048,0.147833
65400.9,1.28454,12823.8,0.19608,0.152647
65600.9,1.28062,12990.3,0.19802,0.154628
65800.8,1.27673,13115.4,0.19932,0.156118
66000.8,1.27286,13245,0.20068,0.15766
66200.8,1.26902,13356.7,0.20176,0.158989
66400.8,1.26519,13497.9,0.20328,0.160671
66600.8,1.2614,13635.8,0.20474,0.162312
66800.7,1.25762,13769,0.20612,0.163897
67000.7,1.25387,13906.7,0.20756,0.165536
67200.7,1.25013,14006,0.20842,0.166718
67400.7,1.24642,14177.1,0.21034,0.168755
67600.7,1.24274,14350.3,0.21228,0.170817
67800.8,1.23907,14493.1,0.21376,0.172516
68000.7,1.23543,14652.8,0.21548,0.174418
68200.7,1.2318,14796.8,0.21696,0.176132
68400.7,1.2282,14920.9,0.21814,0.177609
68600.7,1.22462,15037.3,0.2192,0.178994
68800.7,1.22106,15195.3,0.22086,0.180875
69000.7,1.21752,15344.4,0.22238,0.18265
69200.7,1.214,15498.2,0.22396,0.184481
69400.7,1.21051,15611,0.22494,0.185823
69600.7,1.20703,15770.1,0.22658,0.187717
69800.7,1.20357,15929.9,0.22822,0.18962
70000.7,1.20013,16068,0.22954,0.191263
70200.7,1.19671,16192.5,0.23066,0.192745
70400.7,1.19331,16347,0.2322,0.194585
70600.7,1.18993,16486.7,0.23352,0.196247
70800.7,1.18657,16590,0.23432,0.197477
71000.7,1.18323,16739.1,0.23576,0.199252
71200.6,1.1799,16856,0.23674,0.200644
71400.7,1.1766,16996.2,0.23804,0.202312
71600.7,1.17331,17126.9,0.2392,0.203867
71800.6,1.17004,17246.5,0.2402,0.205292
72000.6,1.16679,17396.8,0.24162,0.20708
72200.6,1.16356,17491.3,0.24226,0.208206
72400.7,1.16035,17629.6,0.2435,0.209851
72600.7,1.15715,17759.6,0.24462,0.211399
72800.6,1.15397,17890,0.24574,0.212951
73000.6,1.15081,18019.5,0.24684,0.214492
73200.6,1.14767,18143.5,0.24786,0.215969
73400.6,1.14454,18281.2,0.24906,0.217607
73600.6,1.14143,18422.2,0.2503,0.219287
73800.6,1.13834,18554.9,0.25142,0.220866
74000.7,1.13526,18673.3,0.25234,0.222275
74200.6,1.1322,18789.1,0.25322,0.223653
74400.6,1.12916,18926,0.25438,0.225283
74600.6,1.12613,19036.6,0.25518,0.226599
74800.6,1.12312,19169.9,0.25628,0.228186
75000.7,1.12012,19299.2,0.25732,0.229725
75200.6,1.11714,19397.2,0.25794,0.230892
75400.6,1.11418,19539.3,0.25914,0.232583
75600.6,1.11123,19660.7,0.26006,0.234028
75800.6,1.1083,19790,0.26108,0.235568
76000.6,1.10538,19910.6,0.26198,0.237003
76200.6,1.10248,20022.5,0.26276,0.238335
76400.7,1.0996,20174.4,0.26406,0.240143
76600.7,1.09672,20270.1,0.26462,0.241282
76800.7,1.09387,20424.4,0.26594,0.243119
77000.7,1.09103,20531.5,0.26664,0.244393
77200.8,1.0882,20651.2,0.2675,0.245819
77400.6,1.08539,20789.8,0.2686,0.247469
77600.6,1.08259,20930.4,0.26972,0.249142
77800.7,1.07981,21056,0.27064,0.250637
78200.6,1.07429,21275.3,0.27206,0.253247
