#unit_cell_volume,density,AV_A3,AV_volumefraction,AV_cm3g
48001.5,1.70417,4243.33,0.0884,0.0518726
48201.5,1.6971,4340.06,0.09004,0.0530551
48401.4,1.69009,4425.83,0.09144,0.0541035
48601.4,1.68314,4511.18,0.09282,0.055147
48801.4,1.67624,4603.92,0.09434,0.0562806
49001.3,1.6694,4683.54,0.09558,0.057254
49201.3,1.66262,4757.77,0.0967,0.0581613
49401.3,1.65589,4871.95,0.09862,0.0595572
49601.2,1.64921,4975,0.1003,0.0608169
49801.3,1.64259,5070.76,0.10182,0.0619876
50001.3,1.63602,5149.13,0.10298,0.0629456
50201.3,1.6295,5216.91,0.10392,0.0637742
50401.5,1.62303,5305.26,0.10526,0.0648541
50601.5,1.61661,5389.06,0.1065,0.0658785
50801.5,1.61025,5474.37,0.10776,0.0669214
51001.4,1.60394,5569.35,0.1092,0.0680826
51201.4,1.59767,5680.29,0.11094,0.0694387
51401.3,1.59146,5778.53,0.11242,0.0706397
51601.4,1.58529,5881.52,0.11398,0.0718987
51801.3,1.57917,5983.05,0.1155,0.0731398
52001.3,1.57309,6097.67,0.11726,0.074541
52201.3,1.56707,6199.43,0.11876,0.0757849
52401.3,1.56108,6303.88,0.1203,0.0770618
52601.3,1.55515,6360.55,0.12092,0.0777546
52801.3,1.54926,6456.55,0.12228,0.0789281
53001.4,1.54341,6646.38,0.1254,0.0812487
53201.4,1.53761,6644.85,0.1249,0.08123
53402.1,1.53183,6750.02,0.1264,0.0825157
53601.7,1.52613,6926.41,0.12922,0.0846719
53801.9,1.52045,7383.77,0.13724,0.0902629
54002.3,1.5148,7112.11,0.1317,0.086942
54208.6,1.50904,7309.48,0.13484,0.0893548
54401.7,1.50368,7259.37,0.13344,0.0887421
54601.7,1.49818,7877.93,0.14428,0.0963038
54803.1,1.49267,7956.31,0.14518,0.097262
55006.6,1.48715,7985.86,0.14518,0.0976231
55201.4,1.4819,7729.3,0.14002,0.0944869
55401.4,1.47655,7905.79,0.1427,0.0966443
55601.4,1.47124,8026.62,0.14436,0.0981215
55801.5,1.46596,8118,0.14548,0.0992384
56001.5,1.46073,8231.1,0.14698,0.100621
56202.2,1.45551,8385.36,0.1492,0.102507
56402.7,1.45034,8578.84,0.1521,0.104872
56601.7,1.44524,8678.17,0.15332,0.106086
56801.6,1.44015,8829.25,0.15544,0.107933
57201.7,1.43008,9201.47,0.16086,0.112483
57401.6,1.4251,9315.13,0.16228,0.113873
57601.6,1.42015,9493.89,0.16482,0.116058
57801.4,1.41524,9614.68,0.16634,0.117535
58001.3,1.41036,9727.98,0.16772,0.11892
58201.2,1.40552,9842.99,0.16912,0.120326
58401.2,1.40071,9950.39,0.17038,0.121639
58601.1,1.39593,10061.8,0.1717,0.123001
58801.1,1.39118,10197.3,0.17342,0.124657
59001,1.38647,10321.6,0.17494,0.126177
59201,1.38178,10464.4,0.17676,0.127922
59401,1.37713,10595.9,0.17838,0.12953
59601,1.37251,10703.1,0.17958,0.130841
59801,1.36792,10835.9,0.1812,0.132464
60000.9,1.36336,10967,0.18278,0.134066
60201,1.35883,11077,0.184,0.135411
60400.9,1.35433,11174.2,0.185,0.136599
60601,1.34986,11280.3,0.18614,0.137896
60800.9,1.34542,11401.4,0.18752,0.139376
61000.9,1.34101,11528,0.18898,0.140924
61401,1.33227,11723.9,0.19094,0.143319
61601,1.32795,11839.7,0.1922,0.144735
61801.1,1.32365,11928.8,0.19302,0.145824
62001.1,1.31938,12008.4,0.19368,0.146796
62401,1.31092,12175.7,0.19512,0.148842
62601.7,1.30672,12276.2,0.1961,0.15007
62802.7,1.30254,12296.8,0.1958,0.150322
63003.2,1.29839,12381.4,0.19652,0.151356
63202.8,1.29429,12525.5,0.19818,0.153118
63402.2,1.29022,12662.7,0.19972,0.154795
63602,1.28617,12787.8,0.20106,0.156325
63801.9,1.28214,12945.4,0.2029,0.158251
64001.6,1.27814,13078.1,0.20434,0.159873
64201.5,1.27416,13242.2,0.20626,0.161879
64401.3,1.27021,13377.4,0.20772,0.163533
64601.3,1.26627,13532.7,0.20948,0.16543
64801.2,1.26237,13684.7,0.21118,0.167289
65001.1,1.25848,13867.3,0.21334,0.169521
65201.1,1.25463,13994.8,0.21464,0.171079
65401,1.25079,14148.9,0.21634,0.172963
65601,1.24698,14306.3,0.21808,0.174887
65801,1.24319,14469.6,0.2199,0.176884
66000.9,1.23942,14627.1,0.22162,0.178809
66200.9,1.23568,14753.5,0.22286,0.180355
66401,1.23195,14950.9,0.22516,0.182767
66600.9,1.22826,15089.1,0.22656,0.184457
66800.8,1.22458,15225.2,0.22792,0.186121
67000.9,1.22092,15400.8,0.22986,0.188267
67200.8,1.21729,15574.5,0.23176,0.19039
67400.8,1.21368,15715.2,0.23316,0.19211
67600.8,1.21009,15864.6,0.23468,0.193936
67800.8,1.20652,16041.7,0.2366,0.196101
68000.8,1.20297,16170.6,0.2378,0.197677
68200.8,1.19944,16312.3,0.23918,0.199409
68400.8,1.19594,16457.2,0.2406,0.201181
68600.8,1.19245,16631.6,0.24244,0.203313
68800.8,1.18898,16791.5,0.24406,0.205268
69000.8,1.18554,16924.5,0.24528,0.206894
69200.8,1.18211,17088.4,0.24694,0.208898
69400.8,1.1787,17218.3,0.2481,0.210486
69600.7,1.17532,17382.1,0.24974,0.212487
69800.8,1.17195,17528.4,0.25112,0.214276
70000.8,1.1686,17641.6,0.25202,0.21566
70200.8,1.16527,17842.2,0.25416,0.218112
70400.7,1.16196,17949.4,0.25496,0.219422
70600.7,1.15867,18126,0.25674,0.221582
70800.8,1.1554,18252.4,0.2578,0.223127
71000.8,1.15214,18413.3,0.25934,0.225094
71200.8,1.14891,18540.7,0.2604,0.226651
71400.7,1.14569,18691.3,0.26178,0.228492
71600.7,1.14249,18806.7,0.26266,0.229902
71800.8,1.1393,18955.4,0.264,0.23172
72000.7,1.13614,19075.9,0.26494,0.233193
72200.7,1.13299,19208.3,0.26604,0.234812
72400.7,1.12986,19357.1,0.26736,0.23663
72600.7,1.12675,19510.7,0.26874,0.238509
72800.7,1.12366,19663.5,0.2701,0.240376
73000.7,1.12058,19781.7,0.27098,0.241822
73200.7,1.11752,19912.1,0.27202,0.243415
73400.7,1.11447,20057.5,0.27326,0.245193
73600.7,1.11144,20171,0.27406,0.246581
73800.7,1.10843,20317.3,0.2753,0.248369
74000.6,1.10544,20467.1,0.27658,0.2502
74200.7,1.10246,20598.1,0.2776,0.251802
74400.7,1.09949,20725.1,0.27856,0.253354
74600.7,1.09654,20861.3,0.27964,0.255019
74800.7,1.09361,20996.6,0.2807,0.256672
75000.7,1.0907,21123.2,0.28164,0.25822
75200.7,1.08779,21260.7,0.28272,0.259902
75400.7,1.08491,21391.2,0.2837,0.261496
75600.7,1.08204,21525,0.28472,0.263133
75800.7,1.07918,21633.5,0.2854,0.264459
76000.7,1.07634,21783.3,0.28662,0.26629
76200.7,1.07352,21923,0.2877,0.267997
76400.6,1.07071,22038.5,0.28846,0.26941
76600.6,1.06791,22156,0.28924,0.270846
76800.7,1.06513,22321.3,0.29064,0.272867
77000.7,1.06237,22451.9,0.29158,0.274463
77200.7,1.05961,22571.9,0.29238,0.275931
77400.6,1.05688,22704.7,0.29334,0.277554
77600.7,1.05415,22853.4,0.2945,0.279371
77800.7,1.05144,22985.5,0.29544,0.280986
78000.7,1.04875,23105.4,0.29622,0.282451
78200.6,1.04606,23236.5,0.29714,0.284055
78400.7,1.04339,23365,0.29802,0.285625
